# k [\AA^{-1}]            c(k)
9.999999999999999293e-40 -6.413668141034647761e+02
1.000000000000000021e-02 -6.428438259034996918e+02
2.000000000000000042e-02 -6.441318467178674609e+02
2.999999999999999889e-02 -6.452286708307012759e+02
4.000000000000000083e-02 -6.461324099375323158e+02
5.000000000000000278e-02 -6.468415012173533114e+02
5.999999999999999778e-02 -6.473547140566147391e+02
7.000000000000000666e-02 -6.476711553714270622e+02
8.000000000000000167e-02 -6.477902734851511468e+02
8.999999999999999667e-02 -6.477118605300256604e+02
1.000000000000000056e-01 -6.474360533533396165e+02
1.100000000000000006e-01 -6.469633329207862289e+02
1.199999999999999956e-01 -6.462945222218501158e+02
1.300000000000000044e-01 -6.454307826942280144e+02
1.400000000000000133e-01 -6.443736091962273349e+02
1.499999999999999944e-01 -6.431248235676310969e+02
1.600000000000000033e-01 -6.416865668305623558e+02
1.700000000000000122e-01 -6.400612900922493509e+02
1.799999999999999933e-01 -6.382517442211905063e+02
1.900000000000000022e-01 -6.362609683769089770e+02
2.000000000000000111e-01 -6.340922774812003126e+02
2.099999999999999922e-01 -6.317492487254157822e+02
2.200000000000000011e-01 -6.292357072138520380e+02
2.300000000000000100e-01 -6.265557108476683652e+02
2.399999999999999911e-01 -6.237135345569425908e+02
2.500000000000000000e-01 -6.207136539904672645e+02
2.600000000000000089e-01 -6.175607287737215074e+02
2.700000000000000178e-01 -6.142595854451665218e+02
2.800000000000000266e-01 -6.108152001796202057e+02
2.899999999999999800e-01 -6.072326814050952635e+02
2.999999999999999889e-01 -6.035172524161337151e+02
3.099999999999999978e-01 -5.996742340824988560e+02
3.200000000000000067e-01 -5.957090277471360196e+02
3.300000000000000155e-01 -5.916270984017023693e+02
3.400000000000000244e-01 -5.874339582218138958e+02
3.500000000000000333e-01 -5.831351505375359920e+02
3.599999999999999867e-01 -5.787362343076847537e+02
3.699999999999999956e-01 -5.742427691593042027e+02
3.800000000000000044e-01 -5.696603010463345527e+02
3.900000000000000133e-01 -5.649943485740817550e+02
4.000000000000000222e-01 -5.602503900287437091e+02
4.100000000000000311e-01 -5.554338511439962076e+02
4.199999999999999845e-01 -5.505500936295923111e+02
4.299999999999999933e-01 -5.456044044801240034e+02
4.400000000000000022e-01 -5.406019860756140361e+02
4.500000000000000111e-01 -5.355479470794658710e+02
4.600000000000000200e-01 -5.304472941335708356e+02
4.700000000000000289e-01 -5.253049243450593622e+02
4.799999999999999822e-01 -5.201256185543167021e+02
4.899999999999999911e-01 -5.149140353694868963e+02
5.000000000000000000e-01 -5.096747059487440197e+02
5.100000000000000089e-01 -5.044120295081485779e+02
5.200000000000000178e-01 -4.991302695298908247e+02
5.300000000000000266e-01 -4.938335506431726571e+02
5.400000000000000355e-01 -4.885258561478499928e+02
5.500000000000000444e-01 -4.832110261492532572e+02
5.600000000000000533e-01 -4.778927562712882491e+02
5.700000000000000622e-01 -4.725745969139779277e+02
5.799999999999999600e-01 -4.672599530209988075e+02
5.899999999999999689e-01 -4.619520843224815962e+02
5.999999999999999778e-01 -4.566541060183477043e+02
6.099999999999999867e-01 -4.513689898677059773e+02
6.199999999999999956e-01 -4.460995656503297937e+02
6.300000000000000044e-01 -4.408485229669223600e+02
6.400000000000000133e-01 -4.356184133457447274e+02
6.500000000000000222e-01 -4.304116526242034411e+02
6.600000000000000311e-01 -4.252305235751305190e+02
6.700000000000000400e-01 -4.200771787487411189e+02
6.800000000000000488e-01 -4.149536435025742662e+02
6.900000000000000577e-01 -4.098618191931155934e+02
7.000000000000000666e-01 -4.048034865042255319e+02
7.099999999999999645e-01 -3.997803088889604624e+02
7.199999999999999734e-01 -3.947938361028349732e+02
7.299999999999999822e-01 -3.898455078080493195e+02
7.399999999999999911e-01 -3.849366572296542017e+02
7.500000000000000000e-01 -3.800685148460571554e+02
7.600000000000000089e-01 -3.752422120976775659e+02
7.700000000000000178e-01 -3.704587850989107096e+02
7.800000000000000266e-01 -3.657191783398837401e+02
7.900000000000000355e-01 -3.610242483657435173e+02
8.000000000000000444e-01 -3.563747674224302955e+02
8.100000000000000533e-01 -3.517714270590460615e+02
8.200000000000000622e-01 -3.472148416780147500e+02
8.300000000000000711e-01 -3.427055520252734482e+02
8.399999999999999689e-01 -3.382440286136975374e+02
8.499999999999999778e-01 -3.338306750738838673e+02
8.599999999999999867e-01 -3.294658314272615485e+02
8.699999999999999956e-01 -3.251497772772927988e+02
8.800000000000000044e-01 -3.208827349152642228e+02
8.900000000000000133e-01 -3.166648723378424961e+02
9.000000000000000222e-01 -3.124304568716161157e+02
9.100000000000000311e-01 -3.080686231958206349e+02
9.200000000000000400e-01 -3.035905961999506530e+02
9.300000000000000488e-01 -2.990098417726483149e+02
9.400000000000000577e-01 -2.943395203027442335e+02
9.500000000000000666e-01 -2.895924220453899807e+02
9.599999999999999645e-01 -2.847809112209271802e+02
9.699999999999999734e-01 -2.799168787547374109e+02
9.799999999999999822e-01 -2.750117034272402634e+02
9.899999999999999911e-01 -2.700762210863243808e+02
1.000000000000000000e+00 -2.651207014798744694e+02
1.010000000000000009e+00 -2.601548321930522434e+02
1.020000000000000018e+00 -2.551877091223729224e+02
1.030000000000000027e+00 -2.502278328847022806e+02
1.040000000000000036e+00 -2.452831105421332154e+02
1.050000000000000044e+00 -2.403608620211191749e+02
1.060000000000000053e+00 -2.354678306140361883e+02
1.070000000000000062e+00 -2.306101969713210451e+02
1.080000000000000071e+00 -2.257935960203903960e+02
1.090000000000000080e+00 -2.210231362817185641e+02
1.119904796191847796e+00 -2.079340489151085478e+02
1.149901996079843336e+00 -1.934160170762865221e+02
1.179899195967838876e+00 -1.778112815183701798e+02
1.209896395855834417e+00 -1.645939968437363632e+02
1.239893595743829735e+00 -1.528348697346015967e+02
1.269890795631825275e+00 -1.401155662392655188e+02
1.299887995519820816e+00 -1.268932557418522151e+02
1.329885195407816356e+00 -1.149310449267053968e+02
1.359882395295811897e+00 -1.041589823097126839e+02
1.389879595183807437e+00 -9.346419104308826320e+01
1.419876795071802977e+00 -8.284592343382900026e+01
1.449873994959798518e+00 -7.310505672112596187e+01
1.479871194847794058e+00 -6.436580092111150009e+01
1.509868394735789598e+00 -5.614455324962283100e+01
1.539865594623785139e+00 -4.831083609048098992e+01
1.569862794511780457e+00 -4.116339020388276282e+01
1.599859994399775998e+00 -3.481808391112384982e+01
1.629857194287771538e+00 -2.909013996265554169e+01
1.659854394175767078e+00 -2.385821867562151155e+01
1.689851594063762619e+00 -1.918739315438177329e+01
1.719848793951758159e+00 -1.511962183143985428e+01
1.749845993839753699e+00 -1.157314684901803048e+01
1.779843193727749240e+00 -8.461130120590674153e+00
1.809840393615744780e+00 -5.771966052570755679e+00
1.839837593503740321e+00 -3.503625450167222599e+00
1.869834793391735639e+00 -1.602642159287738011e+00
1.899831993279731179e+00 -2.442317660327304393e-03
1.929829193167726720e+00 1.325439548922376032e+00
1.959826393055722260e+00 2.390721688749668949e+00
1.989823592943717800e+00 3.227135422195649639e+00
2.019820792831713341e+00 3.885241419912524918e+00
2.049817992719708659e+00 4.396567261931053849e+00
2.079815192607704422e+00 4.773081337232940591e+00
2.109812392495699740e+00 5.037277397071802554e+00
2.139809592383695502e+00 5.225862696415459752e+00
2.169806792271690821e+00 5.361117696325473858e+00
2.199803992159686583e+00 5.442926553345039942e+00
2.229801192047681901e+00 5.477204543582170793e+00
2.259798391935677664e+00 5.490956484940809013e+00
2.289795591823672982e+00 5.507617475492168069e+00
2.319792791711668745e+00 5.525826157307895059e+00
2.349789991599664063e+00 5.537440685538672192e+00
2.379787191487659381e+00 5.551146004897732134e+00
2.409784391375655144e+00 5.581530008303137613e+00
2.439781591263650462e+00 5.626921500430538181e+00
2.469778791151646224e+00 5.676347745870133465e+00
2.499775991039641543e+00 5.730328795471366199e+00
2.529773190927637305e+00 5.796877223953191383e+00
2.559770390815632624e+00 5.872121013952567914e+00
2.589767590703628386e+00 5.942399607520590266e+00
2.619764790591623704e+00 6.003154961378562859e+00
2.649761990479619467e+00 6.059194244558860909e+00
2.679759190367614785e+00 6.106331106695443545e+00
2.709756390255610103e+00 6.128612772030247235e+00
2.739753590143605866e+00 6.116602889407070975e+00
2.769750790031601184e+00 6.074573085437128483e+00
2.799747989919596947e+00 6.004940289195300984e+00
2.829745189807592265e+00 5.897708105671759071e+00
2.859742389695588027e+00 5.741849426564938241e+00
2.889739589583583346e+00 5.536903010525076496e+00
2.919736789471579108e+00 5.285510083221316435e+00
2.949733989359574426e+00 4.982859415195632025e+00
2.979731189247570189e+00 4.622604370976868715e+00
3.009728389135565507e+00 4.207035031725533614e+00
3.039725589023560826e+00 3.741875647457193921e+00
3.069722788911556588e+00 3.225702800446150764e+00
3.099719988799551906e+00 2.654734530644892398e+00
3.129717188687547669e+00 2.034842655627955299e+00
3.159714388575542987e+00 1.377903644267167049e+00
3.189711588463538749e+00 6.881633389458721162e-01
3.219708788351534068e+00 -3.583696485419466532e-02
3.249705988239529830e+00 -7.861742503740640764e-01
3.279703188127525149e+00 -1.545396984708617971e+00
3.309700388015520467e+00 -2.303028361373693045e+00
3.339697587903516229e+00 -3.058540069289625407e+00
3.369694787791511548e+00 -3.804441326562216119e+00
3.399691987679507310e+00 -4.520944569465854102e+00
3.429689187567502628e+00 -5.193312184430760148e+00
3.459686387455498391e+00 -5.820013657506061477e+00
3.489683587343493709e+00 -6.396079450855468806e+00
3.519680787231489472e+00 -6.903445342932269746e+00
3.549677987119484790e+00 -7.327993311804068099e+00
3.579675187007480552e+00 -7.672005836719007377e+00
3.609672386895475871e+00 -7.938182552613038290e+00
3.639669586783471189e+00 -8.115309923005714410e+00
3.669666786671466951e+00 -8.193227786971592153e+00
3.699663986559462270e+00 -8.179312082014568830e+00
3.729661186447458032e+00 -8.085493937623336791e+00
3.759658386335453351e+00 -7.910420207098556311e+00
3.789655586223449113e+00 -7.650026204601508617e+00
3.819652786111444431e+00 -7.315894845547295411e+00
3.849649985999440194e+00 -6.926597635618878535e+00
3.879647185887435512e+00 -6.488215503869433576e+00
3.909644385775431275e+00 -5.999551759365537862e+00
3.939641585663426593e+00 -5.471083439907737045e+00
3.969638785551421911e+00 -4.922460725953271776e+00
3.999635985439417674e+00 -4.363894145731058494e+00
4.029633185327412548e+00 -3.794932303338950152e+00
4.059630385215408310e+00 -3.220847925633008924e+00
4.089627585103404073e+00 -2.656232122420136843e+00
4.119624784991398947e+00 -2.110796810347607355e+00
4.149621984879394709e+00 -1.583779020401467008e+00
4.179619184767390472e+00 -1.075440158982432060e+00
4.209616384655386234e+00 -5.936485699831695051e-01
4.239613584543381108e+00 -1.447690325410327661e-01
4.269610784431376871e+00 2.731446881051891595e-01
4.299607984319372633e+00 6.627441186132003725e-01
4.329605184207367508e+00 1.019929927880224518e+00
4.359602384095363270e+00 1.339808485037624619e+00
4.389599583983359032e+00 1.624755158109488784e+00
4.419596783871354795e+00 1.880423069763423216e+00
4.449593983759349669e+00 2.107417584683217271e+00
4.479591183647345431e+00 2.302870341097145612e+00
4.509588383535341194e+00 2.467629316165451669e+00
4.539585583423336956e+00 2.605911294329773753e+00
4.569582783311331831e+00 2.719279279037786434e+00
4.599579983199327593e+00 2.806604934789861616e+00
4.629577183087323355e+00 2.869391795549901314e+00
4.659574382975318230e+00 2.911800528485633421e+00
4.689571582863313992e+00 2.935298278070579414e+00
4.719568782751309755e+00 2.938255598058520324e+00
4.749565982639305517e+00 2.921396768672670952e+00
4.779563182527300391e+00 2.888832111313789142e+00
4.809560382415296154e+00 2.842655567392945670e+00
4.839557582303291916e+00 2.781256374250530516e+00
4.869554782191287678e+00 2.704576017299271662e+00
4.899551982079282553e+00 2.616340683827415692e+00
4.929549181967278315e+00 2.518765689889113535e+00
4.959546381855274078e+00 2.409552486023300411e+00
4.989543581743268952e+00 2.287279378140496977e+00
5.019540781631264714e+00 2.155724921431714236e+00
5.049537981519260477e+00 2.019019839897123969e+00
5.079535181407256239e+00 1.875974312991869120e+00
5.109532381295251113e+00 1.723630826288781837e+00
5.139529581183246876e+00 1.563617784072739658e+00
5.169526781071242638e+00 1.400062604792539078e+00
5.199523980959238401e+00 1.233281122970224075e+00
5.229521180847233275e+00 1.060892718373023236e+00
5.259518380735229037e+00 8.840504981541191798e-01
5.289515580623224800e+00 7.070632629923363499e-01
5.319512780511219674e+00 5.310802461987017553e-01
5.349509980399215436e+00 3.535846403384627634e-01
5.379507180287211199e+00 1.746694542240967429e-01
5.409504380175206961e+00 -1.475121501506583034e-03
5.439501580063201835e+00 -1.724873652620368403e-01
5.469498779951197598e+00 -3.401305331999407433e-01
5.499495979839193360e+00 -5.049121343467791734e-01
5.529493179727189123e+00 -6.633404290164532924e-01
5.559490379615183997e+00 -8.129141476438984659e-01
5.589487579503179759e+00 -9.551760978523183843e-01
5.619484779391175522e+00 -1.090878300271308499e+00
5.649481979279170396e+00 -1.216543787697904833e+00
5.679479179167166158e+00 -1.329337359542687835e+00
5.709476379055161921e+00 -1.431204179925496867e+00
5.739473578943157683e+00 -1.524050288080216697e+00
5.769470778831152558e+00 -1.604642537635183608e+00
5.799467978719148320e+00 -1.669163114374897283e+00
5.829465178607144082e+00 -1.719608575165200159e+00
5.859462378495139845e+00 -1.760130252694521724e+00
5.889459578383134719e+00 -1.789446933775744597e+00
5.919456778271130482e+00 -1.802939750869102520e+00
5.949453978159126244e+00 -1.800855320126323988e+00
5.979451178047121118e+00 -1.788086953812543678e+00
6.009448377935116881e+00 -1.766132260545759003e+00
6.039445577823112643e+00 -1.731596421379027806e+00
6.069442777711108405e+00 -1.683443760228792163e+00
6.099439977599103280e+00 -1.625693240209433066e+00
6.129437177487099042e+00 -1.561146839965483091e+00
6.159434377375094805e+00 -1.487942397664985483e+00
6.189431577263089679e+00 -1.404837890053584282e+00
6.219428777151085441e+00 -1.315015273868425316e+00
6.249425977039081204e+00 -1.221516967376935492e+00
6.279423176927076966e+00 -1.123155010865234393e+00
6.309420376815071840e+00 -1.018516363895915822e+00
6.339417576703067603e+00 -9.104132847697330444e-01
6.369414776591063365e+00 -8.023811585197110352e-01
6.399411976479059128e+00 -6.936683293918033399e-01
6.429409176367054002e+00 -5.819401297614510415e-01
6.459406376255049764e+00 -4.687561151364438849e-01
6.489403576143045527e+00 -3.579474328112977610e-01
6.519400776031040401e+00 -2.500495945571624135e-01
6.549397975919036163e+00 -1.428406717075456911e-01
6.579395175807031926e+00 -3.663135737810988002e-02
6.609392375695027688e+00 6.546943474255345619e-02
6.639389575583022562e+00 1.625281677664474067e-01
6.669386775471018325e+00 2.567180904928437757e-01
6.699383975359014087e+00 3.486191019437596683e-01
6.729381175247009850e+00 4.355281412303744770e-01
6.759378375135004724e+00 5.156477446716620783e-01
6.789375575023000486e+00 5.904017851141554196e-01
6.819372774910996249e+00 6.609888992256005569e-01
6.849369974798991123e+00 7.258175502480143093e-01
6.879367174686986885e+00 7.833023974553615654e-01
6.909364374574982648e+00 8.343815271536463296e-01
6.939361574462978410e+00 8.800338079235108246e-01
6.969358774350973285e+00 9.187795822038709037e-01
6.999355974238969047e+00 9.491463576740751806e-01
7.029353174126964809e+00 9.725034648192198983e-01
7.059350374014960572e+00 9.907199775018246113e-01
7.089347573902955446e+00 1.002749220862094504e+00
7.119344773790951209e+00 1.006474876247814398e+00
7.149341973678946971e+00 1.002557437113692274e+00
7.179339173566941845e+00 9.932550347267237179e-01
7.209336373454937608e+00 9.783583582041851523e-01
7.239333573342933370e+00 9.557290966484648376e-01
7.269330773230929132e+00 9.255568433798897487e-01
7.299327973118924007e+00 8.906035999099576328e-01
7.329325173006919769e+00 8.519284684266258401e-01
7.359322372894915532e+00 8.077456936875627713e-01
7.389319572782911294e+00 7.573463764279554367e-01
7.419316772670906168e+00 7.029006861766495806e-01
7.449313972558901931e+00 6.460005531888063368e-01
7.479311172446897693e+00 5.854353902646528551e-01
7.509308372334892567e+00 5.203159319918708725e-01
7.539305572222888330e+00 4.527770704562817383e-01
7.569302772110884092e+00 3.852381086281249090e-01
7.599299971998879855e+00 3.171111701463035226e-01
7.629297171886874729e+00 2.468103620310788116e-01
7.659294371774870491e+00 1.753295308444004219e-01
7.689291571662866254e+00 1.050660102870057955e-01
7.719288771550862016e+00 3.637086967739821403e-02
7.749285971438856890e+00 -3.182759621887371743e-02
7.779283171326852653e+00 -9.882037315079043871e-02
7.809280371214848415e+00 -1.625371435043765356e-01
7.839277571102843289e+00 -2.227675857308864527e-01
7.869274770990839052e+00 -2.809625069873679659e-01
7.899271970878834814e+00 -3.367855733832634813e-01
7.929269170766830577e+00 -3.878224635656690178e-01
7.959266370654825451e+00 -4.331908910936594359e-01
7.989263570542821213e+00 -4.745853557450093740e-01
8.019260770430816976e+00 -5.128609352793480625e-01
8.049257970318812738e+00 -5.462894125680118895e-01
8.079255170206808501e+00 -5.734812218814906437e-01
8.109252370094802487e+00 -5.955494431849210901e-01
8.139249569982798249e+00 -6.137176951955820581e-01
8.169246769870794012e+00 -6.269566273336605322e-01
8.199243969758789774e+00 -6.339529111339478051e-01
8.229241169646785536e+00 -6.356334724804379999e-01
8.259238369534781299e+00 -6.335966132130110839e-01
8.289235569422777061e+00 -6.274580817593324866e-01
8.319232769310772824e+00 -6.159827762638570015e-01
8.349229969198766810e+00 -5.997417314999176075e-01
8.379227169086762572e+00 -5.803263004368583999e-01
8.409224368974758335e+00 -5.577209468234342049e-01
8.439221568862754097e+00 -5.308544115176704326e-01
8.469218768750749859e+00 -5.003057214746199355e-01
8.499215968638745622e+00 -4.680223527993795929e-01
8.529213168526741384e+00 -4.344241224941511881e-01
8.559210368414735370e+00 -3.981780132309190035e-01
8.589207568302731133e+00 -3.591229953976117217e-01
8.619204768190726895e+00 -3.191035072966580954e-01
8.649201968078722658e+00 -2.792635767692051574e-01
8.679199167966718420e+00 -2.386873362962973477e-01
8.709196367854714182e+00 -1.967230834431036024e-01
8.739193567742709945e+00 -1.547290105532901916e-01
8.769190767630703931e+00 -1.142047666987053151e-01
8.799187967518699693e+00 -7.477561486047103190e-02
8.829185167406695456e+00 -3.551721282141428321e-02
8.859182367294691218e+00 2.950210308567150115e-03
8.889179567182686981e+00 3.924754127831741463e-02
8.919176767070682743e+00 7.320689508263508727e-02
8.949173966958678506e+00 1.055246476929695698e-01
8.979171166846674268e+00 1.360957609245235511e-01
9.009168366734668254e+00 1.641681792319767685e-01
9.039165566622664016e+00 1.897028146750722732e-01
9.069162766510659779e+00 2.131626385949436930e-01
9.099159966398655541e+00 2.342499653974965956e-01
9.129157166286651304e+00 2.522168943295008958e-01
9.159154366174647066e+00 2.672424040897884989e-01
9.189151566062642829e+00 2.801629450648178699e-01
9.219148765950636815e+00 2.909232340092269276e-01
9.249145965838632577e+00 2.986469191037590121e-01
9.279143165726628339e+00 3.032922625166366570e-01
9.309140365614624102e+00 3.058722064498510251e-01
9.339137565502619864e+00 3.068072471839599635e-01
9.369134765390615627e+00 3.053899644869270125e-01
9.399131965278611389e+00 3.012799166617756708e-01
9.429129165166605375e+00 2.952681718985284420e-01
9.459126365054601138e+00 2.880036714612921322e-01
9.489123564942596900e+00 2.791177930221095393e-01
9.519120764830592663e+00 2.682893738467351241e-01
9.549117964718588425e+00 2.561341463928350493e-01
9.579115164606584187e+00 2.432709866770070839e-01
9.609112364494579950e+00 2.294335320157871172e-01
